# Output from CTFFind version 4.1.14, run on 2023-01-15 17:11:59
# Input file: /home/elferich/Documents/ctffind5_manuscript/data/mmm/mmm.mrc ; Number of micrographs: 1
# Pixel size: 40.000 Angstroms ; acceleration voltage: 300.0 keV ; spherical aberration: 2.70 mm ; amplitude contrast: 0.07
# Box size: 512 pixels ; min. res.: 400.0 Angstroms ; max. res.: 80.0 Angstroms ; min. def.: 1000000.0 um; max. def. 4000000.0 um; num. frames averaged: 3
# 6 lines per micrograph: #1 - spatial frequency (1/Angstroms); #2 - 1D rotational average of spectrum (assuming no astigmatism); #3 - 1D rotational average of spectrum; #4 - CTF fit; #5 - cross-correlation between spectrum and CTF fit; #6 - 2sigma of expected cross correlation of noise
0.000000 0.000049 0.000098 0.000146 0.000195 0.000244 0.000293 0.000342 0.000391 0.000439 0.000488 0.000537 0.000586 0.000635 0.000684 0.000732 0.000781 0.000830 0.000879 0.000928 0.000977 0.001025 0.001074 0.001123 0.001172 0.001221 0.001270 0.001318 0.001367 0.001416 0.001465 0.001514 0.001563 0.001611 0.001660 0.001709 0.001758 0.001807 0.001855 0.001904 0.001953 0.002002 0.002051 0.002100 0.002148 0.002197 0.002246 0.002295 0.002344 0.002393 0.002441 0.002490 0.002539 0.002588 0.002637 0.002686 0.002734 0.002783 0.002832 0.002881 0.002930 0.002979 0.003027 0.003076 0.003125 0.003174 0.003223 0.003271 0.003320 0.003369 0.003418 0.003467 0.003516 0.003564 0.003613 0.003662 0.003711 0.003760 0.003809 0.003857 0.003906 0.003955 0.004004 0.004053 0.004102 0.004150 0.004199 0.004248 0.004297 0.004346 0.004395 0.004443 0.004492 0.004541 0.004590 0.004639 0.004688 0.004736 0.004785 0.004834 0.004883 0.004932 0.004980 0.005029 0.005078 0.005127 0.005176 0.005225 0.005273 0.005322 0.005371 0.005420 0.005469 0.005518 0.005566 0.005615 0.005664 0.005713 0.005762 0.005811 0.005859 0.005908 0.005957 0.006006 0.006055 0.006104 0.006152 0.006201 0.006250 0.006299 0.006348 0.006396 0.006445 0.006494 0.006543 0.006592 0.006641 0.006689 0.006738 0.006787 0.006836 0.006885 0.006934 0.006982 0.007031 0.007080 0.007129 0.007178 0.007227 0.007275 0.007324 0.007373 0.007422 0.007471 0.007520 0.007568 0.007617 0.007666 0.007715 0.007764 0.007812 0.007861 0.007910 0.007959 0.008008 0.008057 0.008105 0.008154 0.008203 0.008252 0.008301 0.008350 0.008398 0.008447 0.008496 0.008545 0.008594 0.008643 0.008691 0.008740 0.008789 0.008838 0.008887 0.008936 0.008984 0.009033 0.009082 0.009131 0.009180 0.009229 0.009277 0.009326 0.009375 0.009424 0.009473 0.009521 0.009570 0.009619 0.009668 0.009717 0.009766 0.009814 0.009863 0.009912 0.009961 0.010010 0.010059 0.010107 0.010156 0.010205 0.010254 0.010303 0.010352 0.010400 0.010449 0.010498 0.010547 0.010596 0.010645 0.010693 0.010742 0.010791 0.010840 0.010889 0.010938 0.010986 0.011035 0.011084 0.011133 0.011182 0.011230 0.011279 0.011328 0.011377 0.011426 0.011475 0.011523 0.011572 0.011621 0.011670 0.011719 0.011768 0.011816 0.011865 0.011914 0.011963 0.012012 0.012061 0.012109 0.012158 0.012207 0.012256 0.012305 0.012354 0.012402 0.012451 0.012500 0.012549 0.012598 0.012646 0.012695 0.012744 0.012793 0.012842 0.012891 0.012939 0.012988 0.013037 0.013086 0.013135 0.013184 0.013232 0.013281 0.013330 0.013379 0.013428 0.013477 0.013525 0.013574 0.013623 0.013672 0.013721 0.013770 0.013818 0.013867 0.013916 0.013965 0.014014 0.014063 0.014111 0.014160 0.014209 0.014258 0.014307 0.014355 0.014404 0.014453 0.014502 0.014551 0.014600 0.014648 0.014697 0.014746 0.014795 0.014844 0.014893 0.014941 0.014990 0.015039 0.015088 0.015137 0.015186 0.015234 0.015283 0.015332 0.015381 0.015430 0.015479 0.015527 0.015576 0.015625 0.015674 0.015723 0.015771 0.015820 0.015869 0.015918 0.015967 0.016016 0.016064 0.016113 0.016162 0.016211 0.016260 0.016309 0.016357 0.016406 0.016455 0.016504 0.016553 0.016602 0.016650 0.016699 0.016748 0.016797 0.016846 0.016895 0.016943 0.016992 0.017041 0.017090 0.017139 0.017188 0.017236 0.017285 0.017334 0.017383 0.017432 0.017480 0.017529 0.017578 0.017627 0.017676
       0.03667        0.03686        0.03701        0.03707        0.03709        0.03711        0.03712        0.03713        0.03713        0.03714        0.03714        0.03714        0.03715        0.03715        0.03715        0.03715        0.03715        0.03716        0.03716        0.03716        0.03716        0.03716        0.03716        0.03716        0.03716        0.03716        0.03716        0.03716        0.03716        0.03716        0.03716        0.03716        0.03716        0.03716        0.03716        0.03716        0.03716        0.03716        0.03717        0.03717        0.03717        0.03717        0.03717        0.03717        0.03717        0.03717        0.03717        0.03717        0.03717        0.03717        0.03717        0.99548        2.62760        2.63585        2.55028        2.81355        2.91322        2.72124        2.89591        3.00464        3.09704        3.19501        3.09597        3.20785        3.27460        3.42931        3.38188        3.05840        3.03778        2.94349        2.84175        2.84975        2.76462        2.58567        2.39128        2.30012        1.98098        1.48404        1.23033        0.98599        0.62514        0.22897       -0.17033       -0.65361       -1.27841       -1.88099       -2.30491       -2.75357       -3.24256       -3.53424       -3.66842       -3.80902       -3.91961       -3.94382       -3.95070       -3.96150       -3.95738       -3.95916       -3.93915       -3.86500       -3.72952       -3.50095       -3.01285       -2.53892       -1.97339       -1.38258       -0.83523       -0.09243        0.35543        0.88129        1.30786        1.64155        1.89854        2.33893        2.50047        2.57904        2.68214        2.70430        2.62074        2.64009        2.52537        2.51634        2.37722        2.18056        1.89539        1.57461        1.13784        0.82752        0.47877       -0.02054       -0.49240       -1.01773       -1.49164       -1.73455       -2.11067       -2.30813       -2.46967       -2.51697       -2.44671       -2.21365       -2.03684       -1.74709       -1.38977       -1.01481       -0.67254       -0.28347       -0.00594        0.32400        0.61703        0.90484        1.03503        1.10523        1.22522        1.27543        1.23957        1.18785        1.09567        0.95837        0.80552        0.54413        0.32385        0.07622       -0.14860       -0.38989       -0.65605       -0.84605       -1.04945       -1.09897       -1.11290       -1.05922       -0.97657       -0.88838       -0.69966       -0.43265       -0.22156       -0.06777        0.09143        0.26888        0.42459        0.57137        0.70299        0.65427        0.67201        0.61360        0.56523        0.49629        0.33541        0.20244        0.04484       -0.18058       -0.31407       -0.37663       -0.43970       -0.54654       -0.55790       -0.56060       -0.51238       -0.45479       -0.36039       -0.21946       -0.04944       -0.01231        0.19727        0.29922        0.39868        0.45194        0.41684        0.42574        0.39572        0.32588        0.20969        0.09680        0.00532       -0.08436       -0.19917       -0.25231       -0.35795       -0.35134       -0.33552       -0.29370       -0.24840       -0.16282       -0.13652       -0.05818        0.04916        0.10331        0.17412        0.23193        0.24399        0.24493        0.21066        0.20176        0.11195        0.04259       -0.04676       -0.10455       -0.15361       -0.19742       -0.21977       -0.23136       -0.16940       -0.12272       -0.11502       -0.05165        0.04309        0.05448        0.10733        0.09802        0.13340        0.12611        0.12728        0.06543        0.05113       -0.04105       -0.09747       -0.12508       -0.12228       -0.16032       -0.16405       -0.12127       -0.10763       -0.04137        0.01383        0.01371        0.02612        0.06770        0.15006        0.13095        0.06816        0.02155        0.01604        0.02488       -0.03942       -0.09367       -0.07512       -0.03848       -0.04894       -0.05960       -0.06554       -0.06810        0.01513        0.02447        0.03377        0.07981        0.06281        0.07456        0.05027        0.06376        0.04749       -0.02374        0.03276       -0.03356       -0.04721       -0.05981       -0.06229        0.00738        0.03001        0.00535        0.04256        0.06694        0.06867        0.05582        0.01889        0.06117       -0.00004       -0.11161       -0.10152        0.01601       -0.00081       -0.01782       -0.07728       -0.06506        0.04870       -0.01593       -0.05070       -0.01033        0.01384        0.00675        0.06442        0.06561        0.04358        0.08818        0.09363        0.06240       -0.06379        0.00132       -0.00929        0.05445        0.02480        0.08430        0.11610        0.10313        0.05925       -0.00864       -0.05461        0.02646        0.00871       -0.08048        0.05925       -0.01881       -0.00523        0.10036        0.03455       -0.01276        0.01035       -0.03006       -0.01703       -0.04668       -0.00112       -0.08363       -0.10624       -0.24523       -0.02540       -0.03305       -0.08842       -0.09401       -0.03193        0.01474        0.08433        0.03290       -0.20996       -0.71856       -0.61442
1.926984 1.912143 1.897285 1.882485 1.867744 1.853063 1.838440 1.823875 1.809370 1.794924 1.780536 1.766208 1.751938 1.737727 1.723575 1.709481 1.695446 1.681470 1.667553 1.653694 1.639895 1.626154 1.612472 1.598850 1.585285 1.571780 1.558334 1.544946 1.531617 1.518348 1.505137 1.491985 1.478891 1.465857 1.452881 1.439965 1.427107 1.414308 1.401568 1.388887 1.376264 1.363701 1.351196 1.338751 1.326364 1.314036 1.301767 1.289556 1.277405 1.265313 1.282811 1.387989 1.664016 1.695349 1.674158 1.697303 1.703916 1.687672 1.679864 1.690214 1.700303 1.696138 1.684623 1.680391 1.691065 1.702347 1.686427 1.625866 1.605278 1.569496 1.551511 1.522695 1.516601 1.476461 1.419647 1.395145 1.337096 1.238447 1.167546 1.120439 1.049223 0.955808 0.878554 0.785993 0.666510 0.531985 0.445441 0.355720 0.256667 0.175065 0.140537 0.107269 0.074744 0.056332 0.045236 0.033762 0.024621 0.016013 0.008039 0.007989 0.022177 0.045061 0.119251 0.195038 0.289133 0.394269 0.477036 0.591877 0.679917 0.770327 0.861266 0.920151 0.948335 1.017736 1.057514 1.066775 1.069781 1.074806 1.051737 1.046801 1.030558 1.004479 0.980191 0.953745 0.886729 0.822636 0.748516 0.675146 0.598533 0.516371 0.414345 0.314364 0.209415 0.147829 0.079666 0.012744 -0.023344 -0.033844 -0.046107 -0.014209 0.003481 0.055512 0.101742 0.178412 0.214332 0.300797 0.340719 0.386649 0.432374 0.503363 0.528853 0.523631 0.536733 0.559459 0.545260 0.534449 0.516346 0.484383 0.445954 0.410461 0.350261 0.319962 0.274586 0.214566 0.153457 0.120573 0.072551 0.039111 0.043631 0.028744 0.036957 0.052785 0.066428 0.114442 0.159888 0.166790 0.206348 0.235005 0.260779 0.276748 0.293214 0.318763 0.285001 0.289799 0.272262 0.269746 0.226830 0.194498 0.179166 0.119854 0.091062 0.069921 0.053847 0.032775 0.024169 0.013611 0.009343 0.025120 0.034103 0.048410 0.086900 0.096672 0.116178 0.153899 0.169256 0.168970 0.169724 0.150673 0.137311 0.147540 0.119338 0.092366 0.070906 0.054131 0.018917 0.010864 -0.018911 -0.012739 -0.002389 -0.014174 -0.004121 0.002692 0.019817 0.011543 0.044284 0.049715 0.050591 0.081855 0.080207 0.105872 0.097991 0.096931 0.080163 0.048696 0.046037 0.021432 0.009356 -0.000219 0.001868 -0.015408 -0.002090 -0.003346 0.017551 0.012066 0.016249 0.035890 0.040978 0.048660 0.050187 0.057724 0.058516 0.048311 0.042940 0.044823 0.011228 0.003010 0.007194 -0.006500 0.000665 0.002300 0.001200 0.007966 0.014665 0.024290 0.028490 0.026264 0.034396 0.055082 0.041057 0.031350 0.022451 0.025439 0.019615 0.014111 0.012412 0.005293 0.002032 -0.002041 0.010640 -0.006866 0.013097 0.005598 0.018710 0.023274 0.022357 0.028283 0.028405 0.006677 0.010482 0.024683 0.020345 0.009117 0.021834 -0.004513 0.002711 -0.002795 0.016695 0.010772 0.005442 0.023083 0.008538 0.031943 0.019654 0.021998 0.020830 0.012315 0.002064 0.005263 0.000334 0.009065 0.007093 0.003968 -0.002088 0.019226 -0.000582 -0.002976 0.009493 0.023688 0.023651 0.009219 0.014145 0.013026 0.022480 0.052449 -0.002148 0.015489 0.002512 0.000896 0.011209 0.026941 0.028305 0.013973 0.018615 0.012882 0.006839 -0.015778 0.000483 0.000403 -0.016553 -0.025452 0.000639 -0.015310 -0.031871 0.013775 -0.001884 -0.023902 -0.012652 0.017157 -0.005378 -0.030495 -0.046198 -0.023388 0.017752 -0.040060 -0.055845 -0.030109 -0.019969 -0.050872 -0.017052 -0.057313 0.029446 -0.015691 -0.135556
0.070000 0.070327 0.071309 0.072946 0.075237 0.078182 0.081780 0.086032 0.090935 0.096490 0.102694 0.109547 0.117046 0.125190 0.133977 0.143402 0.153463 0.164155 0.175475 0.187416 0.199972 0.213137 0.226903 0.241261 0.256200 0.271711 0.287779 0.304393 0.321536 0.339191 0.357341 0.375966 0.395043 0.414548 0.434456 0.454739 0.475366 0.496304 0.517520 0.538975 0.560630 0.582441 0.604365 0.626351 0.648350 0.670308 0.692167 0.713869 0.735352 0.756549 0.777392 0.797811 0.817731 0.837076 0.855767 0.873723 0.890859 0.907089 0.922326 0.936480 0.949459 0.961172 0.971525 0.980425 0.987777 0.993489 0.997467 0.999621 0.999859 0.998095 0.994244 0.988224 0.979957 0.969372 0.956401 0.940982 0.923061 0.902592 0.879535 0.853862 0.825552 0.794596 0.760997 0.724769 0.685938 0.644547 0.600648 0.554312 0.505623 0.454683 0.401608 0.346532 0.289605 0.230996 0.170888 0.109485 0.047005 0.016316 0.080225 0.144456 0.208725 0.272736 0.336178 0.398731 0.460063 0.519834 0.577695 0.633296 0.686281 0.736295 0.782985 0.826003 0.865006 0.899666 0.929664 0.954701 0.974496 0.988791 0.997355 0.999987 0.996518 0.986816 0.970787 0.948378 0.919585 0.884446 0.843051 0.795542 0.742112 0.683009 0.618533 0.549044 0.474951 0.396720 0.314867 0.229959 0.142611 0.053480 0.036736 0.127304 0.217461 0.306421 0.393381 0.477527 0.558043 0.634120 0.704962 0.769800 0.827893 0.878546 0.921115 0.955017 0.979740 0.994849 1.000000 0.994943 0.979531 0.953727 0.917608 0.871370 0.815329 0.749926 0.675726 0.593411 0.503785 0.407764 0.306368 0.200719 0.092020 0.018445 0.129335 0.239265 0.346816 0.450564 0.549091 0.641008 0.724978 0.799732 0.864097 0.917008 0.957536 0.984901 0.998495 0.997893 0.982869 0.953406 0.909707 0.852195 0.781520 0.698554 0.604385 0.500311 0.387818 0.268576 0.144402 0.017245 0.110844 0.237748 0.361316 0.479396 0.589880 0.690739 0.780063 0.856102 0.917301 0.962338 0.990155 0.999988 0.991393 0.964263 0.918845 0.855740 0.775912 0.680674 0.571677 0.450888 0.320553 0.183171 0.041441 0.101786 0.243560 0.380892 0.510826 0.630490 0.737177 0.828394 0.901941 0.955959 0.988985 0.999999 0.988463 0.954343 0.898134 0.820854 0.724042 0.609736 0.480438 0.339066 0.188899 0.033492 0.123386 0.277850 0.426000 0.564010 0.688238 0.795322 0.882276 0.946583 0.986274 0.999996 0.987069 0.947520 0.882105 0.792308 0.680316 0.548988 0.401772 0.242648 0.076008 0.093451 0.260861 0.421316 0.570023 0.702445 0.814448 0.902434 0.963464 0.995374 0.996853 0.967516 0.907932 0.819638 0.705108 0.567708 0.411595 0.241616 0.063161 0.118004 0.295921 0.464629 0.618371 0.751795 0.860140 0.939431 0.986623 0.999736 0.977953 0.921675 0.832537 0.713384 0.568183 0.401930 0.220468 0.030303 0.161622 0.348184 0.522334 0.677381 0.807242 0.906698 0.971616 0.999135 0.987810 0.937699 0.850397 0.729011 0.578067 0.403362 0.211742 0.010868 0.191093 0.385799 0.565083 0.721276 0.847584 0.938355 0.989379 0.998087 0.963703 0.887315 0.771872 0.622094 0.444304 0.246163 0.036382 0.175684 0.380416 0.568390 0.730806 0.859924 0.949422 0.994754 0.993383 0.944954 0.851351 0.716661 0.547013 0.350335 0.135983 0.085668 0.303734 0.507342 0.686195 0.831081 0.934378 0.990469 0.996078 0.950477 0.855586 0.715921 0.538406 0.332061 0.107571 0.123276 0.348163 0.554941 0.732254 0.870206 0.960910 0.998978 0.981864 0.910064 0.787143
1.000000 1.000000 1.000000 1.000000 1.000000 1.000000 1.000000 1.000000 1.000000 1.000000 1.000000 1.000000 1.000000 1.000000 1.000000 1.000000 1.000000 1.000000 1.000000 1.000000 1.000000 1.000000 1.000000 1.000000 1.000000 1.000000 1.000000 1.000000 1.000000 1.000000 1.000000 1.000000 1.000000 1.000000 1.000000 1.000000 1.000000 1.000000 1.000000 1.000000 1.000000 1.000000 1.000000 1.000000 1.000000 1.000000 1.000000 1.000000 1.000000 1.000000 1.000000 1.000000 0.632895 0.632895 0.632895 0.632895 0.632895 0.632895 0.632895 0.632895 0.632895 0.632895 0.632895 0.632895 0.632895 0.632895 0.632895 0.632895 0.630998 0.630998 0.630998 0.630998 0.630998 0.630998 0.630998 0.630998 0.630998 0.630998 0.630998 0.630998 0.630998 0.630998 0.630998 0.630998 0.630998 0.630998 0.630998 0.630998 0.630998 0.630998 0.630998 0.630998 0.630998 0.630998 0.630998 0.630998 0.630998 0.630998 0.630998 0.630998 0.630998 0.630998 0.630998 0.630998 0.630998 0.630998 0.630998 0.630998 0.630998 0.630998 0.630998 0.630998 0.630998 0.630998 0.631815 0.632797 0.634723 0.635654 0.637779 0.994446 0.993633 0.993802 0.993887 0.993907 0.993885 0.993841 0.993798 0.993777 0.993799 0.993877 0.994015 0.994208 0.994441 0.994694 0.994940 0.995177 0.995243 0.995412 0.995505 0.995540 0.995516 0.995438 0.995314 0.995158 0.995613 0.995462 0.995841 0.995870 0.995855 0.995827 0.995804 0.995803 0.995835 0.995907 0.996018 0.996941 0.996990 0.996973 0.996909 0.996815 0.996715 0.996623 0.996555 0.996526 0.996540 0.996595 0.996684 0.996786 0.996838 0.996866 0.996955 0.997012 0.997029 0.997004 0.996943 0.996858 0.991001 0.991035 0.986872 0.986419 0.985856 0.985234 0.982426 0.982213 0.982070 0.981771 0.981630 0.981646 0.981771 0.981602 0.981716 0.981561 0.981504 0.980690 0.974518 0.971171 0.964506 0.959518 0.957339 0.958120 0.959778 0.960686 0.960565 0.960538 0.957152 0.951083 0.947457 0.942174 0.951523 0.944767 0.941218 0.936768 0.933049 0.928845 0.929762 0.930253 0.929740 0.928640 0.927333 0.916891 0.907973 0.906969 0.907292 0.908050 0.908370 0.909833 0.910228 0.909867 0.909489 0.908520 0.909968 0.908066 0.900553 0.886694 0.880488 0.876678 0.875977 0.878039 0.881585 0.884132 0.888040 0.888100 0.881243 0.878348 0.866033 0.858943 0.852697 0.848597 0.850035 0.851479 0.847918 0.850089 0.849054 0.839752 0.833812 0.827461 0.821086 0.828403 0.785790 0.796999 0.798106 0.799523 0.788983 0.784264 0.772735 0.769821 0.758039 0.760592 0.760219 0.762530 0.765463 0.762774 0.751745 0.749200 0.746164 0.730338 0.725327 0.727391 0.719289 0.720316 0.696510 0.659721 0.630930 0.618035 0.601833 0.588412 0.576357 0.509947 0.518518 0.510056 0.511679 0.512029 0.509696 0.510191 0.503836 0.504297 0.508310 0.508435 0.509261 0.505343 0.501369 0.486725 0.466714 0.458130 0.446642 0.449219 0.464137 0.446427 0.445236 0.426163 0.419737 0.409380 0.395573 0.388539 0.400632 0.408710 0.406937 0.345104 0.356753 0.365983 0.361592 0.343717 0.307718 0.321195 0.274669 0.263105 0.249896 0.213270 0.211645 0.211645 0.211645 0.211645 0.247014 0.247014 0.247014 0.247014 0.247014 0.247014 0.247014 0.247014 0.247014 0.247014 0.247014 0.247014 0.247014 0.247014 0.207980 0.207980 0.207980 0.207980 0.207980 0.207980 0.207980 0.207980 0.207980 0.207980 0.207980 0.207980 0.207980 0.207980 0.207980 0.207980 0.207980
0.000000 0.000000 0.000000 0.000000 0.000000 0.000000 0.000000 0.000000 0.000000 0.000000 0.000000 0.000000 0.000000 0.000000 0.000000 0.000000 0.000000 0.000000 0.000000 0.000000 0.000000 0.000000 0.000000 0.000000 0.000000 0.000000 0.000000 0.000000 0.000000 0.000000 0.000000 0.000000 0.000000 0.000000 0.000000 0.000000 0.000000 0.000000 0.000000 0.000000 0.000000 0.000000 0.000000 0.000000 0.000000 0.000000 0.000000 0.000000 0.000000 0.000000 0.000000 0.000000 0.162758 0.162758 0.162758 0.162758 0.162758 0.162758 0.162758 0.162758 0.162758 0.162758 0.162758 0.162758 0.162758 0.162758 0.162758 0.162758 0.178885 0.178885 0.178885 0.178885 0.178885 0.178885 0.178885 0.178885 0.178885 0.178885 0.178885 0.178885 0.178885 0.178885 0.178885 0.178885 0.178885 0.178885 0.178885 0.178885 0.178885 0.178885 0.178885 0.178885 0.178885 0.178885 0.178885 0.178885 0.178885 0.178885 0.178885 0.178885 0.178885 0.178885 0.178885 0.178885 0.178885 0.178885 0.178885 0.178885 0.178885 0.178885 0.178885 0.178885 0.178885 0.178885 0.178885 0.178885 0.178885 0.178885 0.178885 0.203069 0.203069 0.203069 0.203069 0.203069 0.203069 0.203069 0.203069 0.203069 0.203069 0.203069 0.203069 0.203069 0.203069 0.203069 0.203069 0.203069 0.203069 0.203069 0.203069 0.203069 0.203069 0.203069 0.203069 0.203069 0.203069 0.203069 0.203069 0.203069 0.203069 0.203069 0.203069 0.203069 0.203069 0.203069 0.203069 0.222222 0.222222 0.222222 0.222222 0.222222 0.222222 0.222222 0.222222 0.222222 0.222222 0.222222 0.222222 0.222222 0.222222 0.222222 0.222222 0.222222 0.222222 0.222222 0.222222 0.222222 0.222222 0.222222 0.222222 0.222222 0.222222 0.222222 0.222222 0.225018 0.225018 0.225018 0.225018 0.225018 0.225018 0.225018 0.225018 0.225018 0.225018 0.225018 0.225018 0.225018 0.225018 0.225018 0.225018 0.225018 0.225018 0.225018 0.225018 0.225018 0.225018 0.225018 0.225018 0.225018 0.237356 0.237356 0.237356 0.237356 0.237356 0.237356 0.237356 0.237356 0.237356 0.237356 0.237356 0.237356 0.237356 0.237356 0.237356 0.237356 0.237356 0.237356 0.237356 0.237356 0.237356 0.230940 0.230940 0.230940 0.230940 0.230940 0.230940 0.230940 0.230940 0.230940 0.230940 0.230940 0.230940 0.230940 0.230940 0.230940 0.230940 0.230940 0.230940 0.230940 0.230940 0.230940 0.240772 0.240772 0.240772 0.240772 0.240772 0.240772 0.240772 0.240772 0.240772 0.240772 0.240772 0.240772 0.240772 0.240772 0.240772 0.240772 0.240772 0.240772 0.240772 0.240772 0.240772 0.240772 0.240772 0.240772 0.240772 0.240772 0.240772 0.240772 0.240772 0.240772 0.240772 0.240772 0.240772 0.240772 0.240772 0.234082 0.234082 0.234082 0.234082 0.234082 0.234082 0.234082 0.234082 0.234082 0.234082 0.234082 0.234082 0.234082 0.234082 0.234082 0.234082 0.234082 0.244339 0.244339 0.244339 0.244339 0.244339 0.244339 0.244339 0.244339 0.244339 0.244339 0.244339 0.244339 0.244339 0.244339 0.244339 0.237356 0.237356 0.237356 0.237356 0.237356 0.237356 0.237356 0.237356 0.237356 0.237356 0.237356 0.237356 0.237356 0.237356 0.237356 0.240772 0.240772 0.240772 0.240772 0.240772 0.240772 0.240772 0.240772 0.240772 0.240772 0.240772 0.240772 0.240772 0.240772 0.234082 0.234082 0.234082 0.234082 0.234082 0.234082 0.234082 0.234082 0.234082 0.234082 0.234082 0.234082 0.234082 0.234082 0.234082 0.234082 0.234082
