# Output from CTFFind version 4.1.14, run on 2023-01-15 17:09:33
# Input file: /home/elferich/Documents/ctffind5_manuscript/data/mmm/mmm.mrc ; Number of micrographs: 1
# Pixel size: 40.000 Angstroms ; acceleration voltage: 300.0 keV ; spherical aberration: 2.70 mm ; amplitude contrast: 0.07
# Box size: 512 pixels ; min. res.: 400.0 Angstroms ; max. res.: 80.0 Angstroms ; min. def.: 1000000.0 um; max. def. 4000000.0 um; num. frames averaged: 3
# 6 lines per micrograph: #1 - spatial frequency (1/Angstroms); #2 - 1D rotational average of spectrum (assuming no astigmatism); #3 - 1D rotational average of spectrum; #4 - CTF fit; #5 - cross-correlation between spectrum and CTF fit; #6 - 2sigma of expected cross correlation of noise
0.000000 0.000049 0.000098 0.000146 0.000195 0.000244 0.000293 0.000342 0.000391 0.000439 0.000488 0.000537 0.000586 0.000635 0.000684 0.000732 0.000781 0.000830 0.000879 0.000928 0.000977 0.001025 0.001074 0.001123 0.001172 0.001221 0.001270 0.001318 0.001367 0.001416 0.001465 0.001514 0.001563 0.001611 0.001660 0.001709 0.001758 0.001807 0.001855 0.001904 0.001953 0.002002 0.002051 0.002100 0.002148 0.002197 0.002246 0.002295 0.002344 0.002393 0.002441 0.002490 0.002539 0.002588 0.002637 0.002686 0.002734 0.002783 0.002832 0.002881 0.002930 0.002979 0.003027 0.003076 0.003125 0.003174 0.003223 0.003271 0.003320 0.003369 0.003418 0.003467 0.003516 0.003564 0.003613 0.003662 0.003711 0.003760 0.003809 0.003857 0.003906 0.003955 0.004004 0.004053 0.004102 0.004150 0.004199 0.004248 0.004297 0.004346 0.004395 0.004443 0.004492 0.004541 0.004590 0.004639 0.004688 0.004736 0.004785 0.004834 0.004883 0.004932 0.004980 0.005029 0.005078 0.005127 0.005176 0.005225 0.005273 0.005322 0.005371 0.005420 0.005469 0.005518 0.005566 0.005615 0.005664 0.005713 0.005762 0.005811 0.005859 0.005908 0.005957 0.006006 0.006055 0.006104 0.006152 0.006201 0.006250 0.006299 0.006348 0.006396 0.006445 0.006494 0.006543 0.006592 0.006641 0.006689 0.006738 0.006787 0.006836 0.006885 0.006934 0.006982 0.007031 0.007080 0.007129 0.007178 0.007227 0.007275 0.007324 0.007373 0.007422 0.007471 0.007520 0.007568 0.007617 0.007666 0.007715 0.007764 0.007812 0.007861 0.007910 0.007959 0.008008 0.008057 0.008105 0.008154 0.008203 0.008252 0.008301 0.008350 0.008398 0.008447 0.008496 0.008545 0.008594 0.008643 0.008691 0.008740 0.008789 0.008838 0.008887 0.008936 0.008984 0.009033 0.009082 0.009131 0.009180 0.009229 0.009277 0.009326 0.009375 0.009424 0.009473 0.009521 0.009570 0.009619 0.009668 0.009717 0.009766 0.009814 0.009863 0.009912 0.009961 0.010010 0.010059 0.010107 0.010156 0.010205 0.010254 0.010303 0.010352 0.010400 0.010449 0.010498 0.010547 0.010596 0.010645 0.010693 0.010742 0.010791 0.010840 0.010889 0.010938 0.010986 0.011035 0.011084 0.011133 0.011182 0.011230 0.011279 0.011328 0.011377 0.011426 0.011475 0.011523 0.011572 0.011621 0.011670 0.011719 0.011768 0.011816 0.011865 0.011914 0.011963 0.012012 0.012061 0.012109 0.012158 0.012207 0.012256 0.012305 0.012354 0.012402 0.012451 0.012500 0.012549 0.012598 0.012646 0.012695 0.012744 0.012793 0.012842 0.012891 0.012939 0.012988 0.013037 0.013086 0.013135 0.013184 0.013232 0.013281 0.013330 0.013379 0.013428 0.013477 0.013525 0.013574 0.013623 0.013672 0.013721 0.013770 0.013818 0.013867 0.013916 0.013965 0.014014 0.014063 0.014111 0.014160 0.014209 0.014258 0.014307 0.014355 0.014404 0.014453 0.014502 0.014551 0.014600 0.014648 0.014697 0.014746 0.014795 0.014844 0.014893 0.014941 0.014990 0.015039 0.015088 0.015137 0.015186 0.015234 0.015283 0.015332 0.015381 0.015430 0.015479 0.015527 0.015576 0.015625 0.015674 0.015723 0.015771 0.015820 0.015869 0.015918 0.015967 0.016016 0.016064 0.016113 0.016162 0.016211 0.016260 0.016309 0.016357 0.016406 0.016455 0.016504 0.016553 0.016602 0.016650 0.016699 0.016748 0.016797 0.016846 0.016895 0.016943 0.016992 0.017041 0.017090 0.017139 0.017188 0.017236 0.017285 0.017334 0.017383 0.017432 0.017480 0.017529 0.017578 0.017627 0.017676
       0.03239        0.03239        0.03239        0.03239        0.03239        0.03239        0.03239        0.03239        0.03239        0.03239        0.03239        0.03239        0.03239        0.03239        0.03239        0.03239        0.03239        0.03239        0.03239        0.03239        0.03239        0.03239        0.03239        0.03239        0.03239        0.03239        0.03239        0.03239        0.03239        0.03239        0.03239        0.03239        0.03239        0.03239        0.03239        0.03239        0.03239        0.03239        0.03239        0.03239        0.03239        0.03239        0.03239        0.03239        0.03239        0.03239        0.03239        0.03239        0.03239        0.03239        0.03239        0.82908        2.41238        2.32914        2.23982        2.42807        2.47088        2.41010        2.44178        2.74494        2.70993        2.84708        2.82184        2.94458        2.97352        2.91698        2.99005        2.84481        2.75351        2.78507        2.70457        2.57369        2.49815        2.25063        2.29074        2.05456        1.82620        1.44489        1.29755        0.97163        0.66010        0.22509       -0.21472       -0.57420       -0.99316       -1.57556       -2.08498       -2.55248       -2.95499       -3.22814       -3.42683       -3.67032       -3.84470       -3.87772       -3.92632       -3.94690       -3.93570       -3.92174       -3.89070       -3.75181       -3.53486       -3.18988       -2.65909       -2.21739       -1.61264       -1.07296       -0.63021       -0.08081        0.46000        0.84065        1.17891        1.54523        1.76631        2.08287        2.21110        2.32228        2.45740        2.50801        2.45323        2.40112        2.31133        2.24932        2.11870        1.92032        1.71295        1.48356        1.03530        0.74289        0.46718       -0.02188       -0.47618       -0.88227       -1.29436       -1.61704       -1.90811       -2.09044       -2.24333       -2.27446       -2.24996       -2.04022       -1.87262       -1.60198       -1.25755       -0.90471       -0.58368       -0.24481        0.02870        0.38140        0.62359        0.84738        0.97290        1.08612        1.17689        1.20117        1.21068        1.21965        1.06164        0.91540        0.77938        0.56844        0.36156        0.08944       -0.16379       -0.41124       -0.60023       -0.79485       -1.00302       -1.06191       -1.06091       -1.03630       -0.93861       -0.85096       -0.67818       -0.40245       -0.24657       -0.04164        0.11560        0.28521        0.41564        0.57321        0.68596        0.64857        0.66731        0.63183        0.54659        0.47568        0.36780        0.22803        0.03991       -0.14459       -0.26654       -0.36715       -0.44554       -0.57511       -0.60317       -0.57877       -0.54154       -0.46450       -0.34884       -0.20335       -0.05051        0.04233        0.21713        0.33018        0.41268        0.42133        0.41571        0.43080        0.41554        0.34113        0.24203        0.10237        0.01027       -0.09743       -0.19816       -0.27275       -0.35809       -0.36699       -0.37058       -0.32134       -0.24354       -0.16596       -0.13103       -0.02663        0.08569        0.15477        0.20204        0.23501        0.24199        0.27254        0.18645        0.18126        0.11322        0.02091       -0.04523       -0.11556       -0.17233       -0.22518       -0.22812       -0.22983       -0.17958       -0.15662       -0.12233       -0.05071        0.06740        0.06432        0.10398        0.12004        0.15681        0.12576        0.11702        0.05280        0.02470       -0.04773       -0.09116       -0.12662       -0.12860       -0.18803       -0.17625       -0.15130       -0.09475       -0.07514       -0.01684       -0.01273        0.04942        0.09052        0.14162        0.12869        0.08156        0.05972        0.02111        0.05726       -0.02885       -0.07347       -0.08841       -0.07616       -0.05061       -0.05807       -0.06456       -0.07398        0.01094        0.04180        0.03871        0.06641        0.02628        0.07985        0.02529        0.05161        0.03300       -0.01868        0.02781       -0.03797       -0.07487       -0.05829       -0.04808       -0.00357        0.01465       -0.00343        0.02004        0.07067        0.03698        0.06759        0.05205        0.08297       -0.00194       -0.09901       -0.06428       -0.01630       -0.03438       -0.02935       -0.04669       -0.04803        0.04023       -0.02719        0.03587        0.05050        0.04232        0.00926        0.06414        0.03826        0.01182        0.08098        0.06935        0.00047       -0.01815       -0.02276       -0.04086        0.00049        0.02673        0.00802        0.07708        0.03521        0.07411       -0.00974       -0.04971       -0.03326       -0.02070       -0.10391        0.07131        0.04107        0.03882        0.05301        0.01449       -0.00886        0.00851        0.00671       -0.06634       -0.00388       -0.03343        0.01533       -0.06421       -0.13639        0.10028        0.03937       -0.01964       -0.08946        0.00475        0.16553        0.06102        0.00400       -0.09507       -1.03021       -1.01761
2.052496 2.036120 2.019812 2.003570 1.987395 1.971288 1.955247 1.939273 1.923366 1.907526 1.891752 1.876046 1.860406 1.844834 1.829329 1.813890 1.798518 1.783213 1.767975 1.752804 1.737700 1.722663 1.707693 1.692790 1.677953 1.663184 1.648481 1.633845 1.619277 1.604775 1.590340 1.575972 1.561671 1.547437 1.533270 1.519169 1.505136 1.491169 1.477270 1.463437 1.449671 1.435973 1.422341 1.408776 1.395278 1.381847 1.368482 1.355185 1.341955 1.328791 1.338911 1.424957 1.703275 1.725643 1.695370 1.709240 1.709569 1.696958 1.693279 1.698895 1.718104 1.708222 1.711539 1.710647 1.704659 1.694229 1.689447 1.656107 1.620960 1.613865 1.592786 1.550261 1.530473 1.482119 1.460278 1.403181 1.375930 1.277763 1.226518 1.159243 1.101202 1.001494 0.902125 0.825720 0.743561 0.604383 0.511168 0.391909 0.313728 0.230691 0.184877 0.130094 0.080076 0.055627 0.038262 0.022115 0.012988 0.005497 -0.001876 0.009115 0.032598 0.083002 0.167025 0.246057 0.343270 0.457243 0.532899 0.609813 0.715118 0.799236 0.843243 0.932118 0.955264 0.998235 1.035839 1.045174 1.064191 1.061099 1.059283 1.041623 1.022013 0.989074 0.968078 0.938293 0.859162 0.833522 0.758100 0.665888 0.613452 0.524471 0.418050 0.329614 0.248018 0.165935 0.095532 0.042924 0.005771 -0.017086 -0.022019 -0.009046 0.021188 0.062375 0.112989 0.173562 0.236980 0.292152 0.352850 0.387841 0.447800 0.512869 0.515195 0.527750 0.537061 0.554081 0.547657 0.542195 0.540980 0.482422 0.445466 0.414242 0.363267 0.323591 0.272945 0.199119 0.158911 0.113508 0.076740 0.026318 0.030369 0.023526 0.022530 0.057435 0.056405 0.103699 0.140401 0.155434 0.211747 0.231439 0.245277 0.273672 0.295572 0.299779 0.290277 0.283501 0.276478 0.269443 0.224086 0.217816 0.177156 0.125557 0.099195 0.076572 0.051232 0.029702 -0.001904 0.001037 -0.002386 0.018846 0.034114 0.041944 0.080266 0.095281 0.117373 0.147590 0.172247 0.177297 0.172104 0.159261 0.169443 0.162580 0.141825 0.109945 0.083966 0.077833 0.040918 0.018445 0.002850 -0.005762 -0.012758 -0.014161 -0.001132 0.002620 0.028540 0.021182 0.051716 0.070387 0.071871 0.082079 0.091931 0.115881 0.097929 0.102363 0.088455 0.055534 0.056532 0.031829 0.029994 0.008185 0.007522 0.006713 -0.004294 0.006119 0.023193 0.015266 0.029527 0.067955 0.057154 0.058642 0.068304 0.072879 0.064602 0.056472 0.048939 0.043369 0.032363 0.016724 0.016677 0.004606 -0.011114 -0.006145 0.005475 0.009054 0.023407 0.030544 0.020453 0.031573 0.054479 0.056189 0.066659 0.051820 0.042826 0.055263 0.043252 0.021628 0.021593 0.012182 0.004485 0.008621 0.011090 0.006499 0.019982 0.026894 0.042190 0.044698 0.026554 0.031674 0.026442 0.030501 0.026928 0.009580 0.031607 0.028598 0.013133 -0.007306 -0.010045 0.021734 0.012945 0.017533 0.015301 0.016638 0.028879 0.046944 0.035327 0.038831 0.011896 0.006014 0.006733 0.017937 0.006639 0.004681 0.010504 0.007626 0.019243 0.018591 0.036292 0.012968 0.027027 0.017237 -0.010030 -0.003551 0.035134 0.019523 -0.015561 0.020340 0.017165 -0.021680 -0.018631 0.014719 -0.023932 -0.006976 -0.004427 -0.009430 0.011577 -0.031250 -0.014151 -0.033545 -0.018114 -0.039265 -0.007896 -0.063163 0.005118 -0.036104 -0.030724 -0.025846 -0.025072 -0.046444 -0.046906 -0.045299 -0.071328 -0.030732 -0.065470 -0.023457 -0.040311 0.035180 -0.047740 -0.053910 -0.061489 -0.093148 -0.073808 -0.013451 -0.075258 -0.085347 -0.062840
0.070000 0.070327 0.071309 0.072945 0.075236 0.078180 0.081777 0.086027 0.090929 0.096482 0.102685 0.109536 0.117033 0.125175 0.133959 0.143382 0.153440 0.164129 0.175446 0.187384 0.199937 0.213099 0.226861 0.241215 0.256150 0.271657 0.287721 0.304330 0.321469 0.339120 0.357266 0.375886 0.394958 0.414459 0.434362 0.454640 0.475263 0.496197 0.517409 0.538860 0.560511 0.582318 0.604238 0.626221 0.648217 0.670172 0.692030 0.713730 0.735211 0.756407 0.777250 0.797669 0.817591 0.836938 0.855631 0.873590 0.890730 0.906966 0.922209 0.936369 0.949357 0.961079 0.971443 0.980354 0.987720 0.993446 0.997440 0.999610 0.999866 0.998122 0.994291 0.988293 0.980050 0.969490 0.956545 0.941153 0.923261 0.902822 0.879796 0.854154 0.825877 0.794955 0.761390 0.725196 0.686401 0.645044 0.601181 0.554879 0.506225 0.455319 0.402277 0.347232 0.290335 0.231754 0.171673 0.110294 0.047835 0.015468 0.079362 0.143582 0.207843 0.271851 0.335295 0.397855 0.459198 0.518984 0.576868 0.632497 0.685516 0.735570 0.782306 0.825376 0.864439 0.899163 0.929232 0.954346 0.974223 0.988606 0.997263 0.999993 0.996626 0.987029 0.971107 0.948810 0.920128 0.885102 0.843820 0.796422 0.743101 0.684103 0.619730 0.550336 0.476332 0.398183 0.316403 0.231557 0.144261 0.055169 0.035021 0.125576 0.215736 0.304715 0.391710 0.475907 0.556491 0.632653 0.703599 0.768555 0.826784 0.877589 0.920324 0.954406 0.979320 0.994633 0.999996 0.995158 0.979970 0.954392 0.918500 0.872485 0.816663 0.751470 0.677468 0.595337 0.505878 0.410003 0.308732 0.203180 0.094554 0.015871 0.126752 0.236705 0.344313 0.448154 0.546808 0.638887 0.723052 0.798033 0.862656 0.915852 0.956690 0.984386 0.998327 0.998085 0.983427 0.954333 0.910998 0.853840 0.783504 0.700855 0.606974 0.503155 0.390879 0.271809 0.147759 0.020672 0.107403 0.234349 0.358019 0.476261 0.586965 0.688102 0.777757 0.854177 0.915801 0.961301 0.989612 0.999962 0.991896 0.965299 0.920406 0.857809 0.778461 0.683664 0.575060 0.454603 0.324534 0.187341 0.045721 0.097485 0.239326 0.376818 0.507003 0.627005 0.734114 0.825829 0.899944 0.954585 0.988280 0.999995 0.989174 0.955769 0.900257 0.823638 0.727437 0.613674 0.484835 0.343824 0.193908 0.038637 0.118232 0.272817 0.421220 0.559608 0.684336 0.792030 0.879696 0.944795 0.985343 0.999965 0.987956 0.949320 0.884787 0.795815 0.684567 0.553876 0.407174 0.248419 0.081987 0.087429 0.254975 0.415740 0.564929 0.697995 0.810787 0.899689 0.961737 0.994736 0.997346 0.969144 0.910667 0.823411 0.709822 0.573224 0.417753 0.248226 0.070012 0.111133 0.289260 0.458406 0.612802 0.747083 0.856462 0.936932 0.985412 0.999877 0.979466 0.924530 0.836655 0.718638 0.574405 0.408908 0.227958 0.038037 0.153929 0.340821 0.515584 0.671511 0.802492 0.903271 0.969665 0.998762 0.989056 0.940541 0.854751 0.734725 0.584934 0.411121 0.220090 0.019473 0.182582 0.377741 0.557823 0.715131 0.842833 0.935225 0.988031 0.998606 0.966096 0.891506 0.777706 0.629340 0.452657 0.255266 0.045834 0.166306 0.371540 0.560433 0.724153 0.854902 0.946295 0.993695 0.994475 0.948177 0.856583 0.723680 0.555502 0.359903 0.146176 0.075341 0.293788 0.498284 0.678487 0.825137 0.930523 0.988934 0.996975 0.953794 0.861187 0.723542 0.547676 0.342515 0.118664 0.112119 0.337553 0.545455 0.724428 0.864489 0.957648 0.998385 0.984012 0.914869 0.794372
1.000000 1.000000 1.000000 1.000000 1.000000 1.000000 1.000000 1.000000 1.000000 1.000000 1.000000 1.000000 1.000000 1.000000 1.000000 1.000000 1.000000 1.000000 1.000000 1.000000 1.000000 1.000000 1.000000 1.000000 1.000000 1.000000 1.000000 1.000000 1.000000 1.000000 1.000000 1.000000 1.000000 1.000000 1.000000 1.000000 1.000000 1.000000 1.000000 1.000000 1.000000 1.000000 1.000000 1.000000 1.000000 1.000000 1.000000 1.000000 1.000000 1.000000 1.000000 1.000000 0.676132 0.676132 0.676132 0.676132 0.676132 0.676132 0.676132 0.676132 0.676132 0.676132 0.676132 0.676132 0.676132 0.676132 0.676132 0.676132 0.671846 0.671846 0.671846 0.671846 0.671846 0.671846 0.671846 0.671846 0.671846 0.671846 0.671846 0.671846 0.671846 0.671846 0.671846 0.671846 0.671846 0.671846 0.671846 0.671846 0.671846 0.671846 0.671846 0.671846 0.671846 0.671846 0.671846 0.671846 0.671846 0.671846 0.671846 0.671846 0.671846 0.671846 0.671846 0.671846 0.671846 0.671846 0.671846 0.671846 0.671846 0.671846 0.671846 0.671846 0.671846 0.671846 0.672510 0.674226 0.676957 0.678340 0.680704 0.992538 0.991709 0.991343 0.991459 0.991483 0.991444 0.991373 0.991300 0.991254 0.991260 0.991335 0.991485 0.991704 0.991973 0.992269 0.992566 0.992838 0.993067 0.993238 0.993341 0.993372 0.993330 0.993219 0.993049 0.992835 0.993221 0.993004 0.992320 0.991692 0.991683 0.991635 0.991580 0.991544 0.991548 0.991606 0.991719 0.992281 0.992419 0.992407 0.992294 0.992118 0.991918 0.991730 0.991587 0.991513 0.991518 0.991543 0.991647 0.991716 0.991907 0.992059 0.992203 0.992291 0.992314 0.992269 0.992166 0.992029 0.991896 0.991830 0.991882 0.991806 0.991523 0.991268 0.989638 0.989510 0.989015 0.988995 0.989027 0.989097 0.989188 0.989277 0.989345 0.987967 0.987735 0.986741 0.979113 0.975734 0.968742 0.966192 0.962945 0.963417 0.964093 0.964870 0.964533 0.964091 0.958580 0.953513 0.953324 0.950623 0.951505 0.951376 0.948519 0.944651 0.942939 0.944194 0.944870 0.944560 0.943556 0.942589 0.941141 0.938813 0.938211 0.938412 0.940160 0.941256 0.941456 0.941372 0.941323 0.941319 0.936311 0.933527 0.930556 0.931438 0.929903 0.930698 0.930167 0.927495 0.928194 0.929003 0.926900 0.927754 0.929362 0.932074 0.932785 0.932581 0.927178 0.924359 0.921480 0.921908 0.923235 0.923602 0.924548 0.925702 0.925643 0.922474 0.921355 0.920993 0.900761 0.875634 0.861283 0.866434 0.871316 0.848888 0.844391 0.840106 0.836782 0.834333 0.834358 0.836351 0.838011 0.840465 0.817457 0.793417 0.781597 0.776518 0.776443 0.774346 0.771294 0.772256 0.773815 0.776313 0.774578 0.766127 0.768390 0.760458 0.712228 0.693155 0.686993 0.654182 0.610149 0.619122 0.621551 0.615441 0.600831 0.595131 0.586412 0.567556 0.561538 0.540358 0.536271 0.532870 0.531634 0.537865 0.506571 0.499307 0.502180 0.466360 0.485277 0.449944 0.446994 0.436519 0.415836 0.400900 0.361304 0.328917 0.309569 0.288659 0.281961 0.294533 0.241368 0.236803 0.229439 0.205491 0.170632 0.138129 0.119065 0.095195 0.081830 0.092820 0.074696 0.074696 0.074696 0.074696 0.103366 0.103366 0.103366 0.103366 0.103366 0.103366 0.103366 0.103366 0.103366 0.103366 0.103366 0.103366 0.103366 0.103366 0.068446 0.068446 0.068446 0.068446 0.068446 0.068446 0.068446 0.068446 0.068446 0.068446 0.068446 0.068446 0.068446 0.068446 0.068446 0.068446 0.068446
0.000000 0.000000 0.000000 0.000000 0.000000 0.000000 0.000000 0.000000 0.000000 0.000000 0.000000 0.000000 0.000000 0.000000 0.000000 0.000000 0.000000 0.000000 0.000000 0.000000 0.000000 0.000000 0.000000 0.000000 0.000000 0.000000 0.000000 0.000000 0.000000 0.000000 0.000000 0.000000 0.000000 0.000000 0.000000 0.000000 0.000000 0.000000 0.000000 0.000000 0.000000 0.000000 0.000000 0.000000 0.000000 0.000000 0.000000 0.000000 0.000000 0.000000 0.000000 0.000000 0.162758 0.162758 0.162758 0.162758 0.162758 0.162758 0.162758 0.162758 0.162758 0.162758 0.162758 0.162758 0.162758 0.162758 0.162758 0.162758 0.178885 0.178885 0.178885 0.178885 0.178885 0.178885 0.178885 0.178885 0.178885 0.178885 0.178885 0.178885 0.178885 0.178885 0.178885 0.178885 0.178885 0.178885 0.178885 0.178885 0.178885 0.178885 0.178885 0.178885 0.178885 0.178885 0.178885 0.178885 0.178885 0.178885 0.178885 0.178885 0.178885 0.178885 0.178885 0.178885 0.178885 0.178885 0.178885 0.178885 0.178885 0.178885 0.178885 0.178885 0.178885 0.178885 0.178885 0.178885 0.178885 0.178885 0.178885 0.203069 0.203069 0.203069 0.203069 0.203069 0.203069 0.203069 0.203069 0.203069 0.203069 0.203069 0.203069 0.203069 0.203069 0.203069 0.203069 0.203069 0.203069 0.203069 0.203069 0.203069 0.203069 0.203069 0.203069 0.203069 0.203069 0.203069 0.203069 0.203069 0.203069 0.203069 0.203069 0.203069 0.203069 0.203069 0.203069 0.222222 0.222222 0.222222 0.222222 0.222222 0.222222 0.222222 0.222222 0.222222 0.222222 0.222222 0.222222 0.222222 0.222222 0.222222 0.222222 0.222222 0.222222 0.222222 0.222222 0.222222 0.222222 0.222222 0.222222 0.222222 0.222222 0.222222 0.222222 0.225018 0.225018 0.225018 0.225018 0.225018 0.225018 0.225018 0.225018 0.225018 0.225018 0.225018 0.225018 0.225018 0.225018 0.225018 0.225018 0.225018 0.225018 0.225018 0.225018 0.225018 0.225018 0.225018 0.225018 0.225018 0.234082 0.234082 0.234082 0.234082 0.234082 0.234082 0.234082 0.234082 0.234082 0.234082 0.234082 0.234082 0.234082 0.234082 0.234082 0.234082 0.234082 0.234082 0.234082 0.234082 0.234082 0.234082 0.237356 0.237356 0.237356 0.237356 0.237356 0.237356 0.237356 0.237356 0.237356 0.237356 0.237356 0.237356 0.237356 0.237356 0.237356 0.237356 0.237356 0.237356 0.237356 0.237356 0.240772 0.240772 0.240772 0.240772 0.240772 0.240772 0.240772 0.240772 0.240772 0.240772 0.240772 0.240772 0.240772 0.240772 0.240772 0.240772 0.240772 0.240772 0.240772 0.240772 0.240772 0.240772 0.240772 0.240772 0.240772 0.240772 0.240772 0.240772 0.240772 0.240772 0.240772 0.240772 0.240772 0.240772 0.240772 0.234082 0.234082 0.234082 0.234082 0.234082 0.234082 0.234082 0.234082 0.234082 0.234082 0.234082 0.234082 0.234082 0.234082 0.234082 0.234082 0.234082 0.244339 0.244339 0.244339 0.244339 0.244339 0.244339 0.244339 0.244339 0.244339 0.244339 0.244339 0.244339 0.244339 0.244339 0.244339 0.237356 0.237356 0.237356 0.237356 0.237356 0.237356 0.237356 0.237356 0.237356 0.237356 0.237356 0.237356 0.237356 0.237356 0.237356 0.240772 0.240772 0.240772 0.240772 0.240772 0.240772 0.240772 0.240772 0.240772 0.240772 0.240772 0.240772 0.240772 0.240772 0.234082 0.234082 0.234082 0.234082 0.234082 0.234082 0.234082 0.234082 0.234082 0.234082 0.234082 0.234082 0.234082 0.234082 0.234082 0.234082 0.234082
